this is the FWX joint values,the following info is time,x,y,theta,joint1,joint2,joint3,joint4,joint5,joint6,joint7
0.0 0.599365457859 -2.49596823985 0.0207691989141 0.0347113567846 0.644106140934 -0.414001145458 -1.33871229664 -1.38807482103 -1.92124690503 1.20660623683
0.218964184845 0.599292533886 -2.4919376109 0.0215505785029 0.0362741159622 0.644016334425 -0.413744693978 -1.33908181847 -1.38698566625 -1.91818792004 1.20654181342
0.388909244633 0.599220746301 -2.48790787743 0.0223320700162 0.0378370989887 0.643930262942 -0.413486948605 -1.33944552329 -1.38589400299 -1.91512709972 1.2064754109
0.533059515762 0.599149590409 -2.48387888297 0.0231136780333 0.0394003150229 0.643848060323 -0.413227981486 -1.33980416434 -1.38480011498 -1.91206447789 1.20640754891
0.66095110362 0.599080341783 -2.47985097384 0.0238953636995 0.0409636863554 0.643769364578 -0.412967621629 -1.34015582504 -1.38370330049 -1.90900008336 1.20633694857
0.777862549167 0.599012241215 -2.4758239232 0.02467713835 0.0425272356564 0.643694380854 -0.412705982051 -1.34050163577 -1.38260399654 -1.90593394836 1.20626438498
0.885811210801 0.598944527197 -2.47179751041 0.0254590143065 0.0440909875694 0.643623317695 -0.412443166751 -1.34084273844 -1.38150262484 -1.90286610167 1.2061906367
0.987477495799 0.59887873534 -2.46777213632 0.0262409433235 0.0456548456034 0.643555732158 -0.412178973095 -1.34117682186 -1.38039834202 -1.89979658281 1.20611416468
1.08323220506 0.598814102825 -2.46374758321 0.0270229384154 0.0472188357872 0.643491834816 -0.411913513619 -1.3415050244 -1.37929158797 -1.89672541822 1.20603574701
1.17432572159 0.598749864654 -2.4597236397 0.0278050135823 0.0487829861209 0.643431838013 -0.411646891659 -1.34182849434 -1.37818278637 -1.89365263114 1.20595616364
1.26184324314 0.598687563016 -2.45570068734 0.028587117113 0.0503471931823 0.643375289186 -0.41137890672 -1.34214490785 -1.3770710911 -1.89057827265 1.20587387358
1.34592949119 0.598626431625 -2.45167851774 0.0293692637214 0.0519114863992 0.643322402807 -0.411109670874 -1.34245540959 -1.37595694445 -1.88750236358 1.20578965603
1.42753099124 0.598565702118 -2.44765692902 0.0301514690942 0.0534758971448 0.643273395736 -0.41083928667 -1.34276115477 -1.37484077211 -1.8844249216 1.20570429284
1.50671404029 0.598506922989 -2.44363628302 0.0309336780554 0.0550403150672 0.643227805375 -0.410567556055 -1.34305980674 -1.37372172558 -1.88134600922 1.205616241
1.5835541045 0.598449324614 -2.4396163809 0.0317159070106 0.0566047729775 0.643185850365 -0.41029459038 -1.3433525167 -1.37260024917 -1.87826564173 1.20552628095
1.65738576501 0.598392135402 -2.4355970304 0.0324981733228 0.0581693056019 0.643147752561 -0.410020491114 -1.34364044722 -1.37147677033 -1.87518383128 1.20543519674
1.72974656071 0.598336909866 -2.43157857338 0.0332804183862 0.0597337957288 0.643113038049 -0.409745063291 -1.3439212476 -1.37035043874 -1.87210065168 1.20534144228
1.80066912839 0.598282875183 -2.42756082067 0.0340626602803 0.0612982795169 0.64308193067 -0.40946841716 -1.34419607661 -1.36922170052 -1.8690161127 1.20524580017
1.87018521407 0.59822925667 -2.42354358985 0.0348449180413 0.062862795039 0.643054657168 -0.409190652898 -1.34446610399 -1.36809098448 -1.86593022111 1.20514905636
1.93831724958 0.598177614568 -2.41952720242 0.0356271296533 0.064427218263 0.643030732273 -0.408911579091 -1.34472896509 -1.36695743921 -1.86284306173 1.20504966191
2.00509577109 0.598127172992 -2.41551147909 0.0364093148644 0.0659915886852 0.643010385066 -0.408631304649 -1.34498582621 -1.36582151228 -1.85975463893 1.20494840144
2.07055047367 0.598077154317 -2.41149624744 0.037191494382 0.0675559477204 0.642993846907 -0.408349928278 -1.34523786394 -1.36468363347 -1.8566649542 1.20484606234
2.13470279889 0.598029124204 -2.40748180829 0.0379736027946 0.0691201645456 0.642980621704 -0.408067262486 -1.34548270032 -1.36354295111 -1.85357410311 1.20474109368
2.19821009033 0.597982303854 -2.40346799241 0.0387556615182 0.0706842819927 0.642970943389 -0.407783414677 -1.34572150874 -1.36239991377 -1.85048208476 1.20463428148
2.26108137624 0.597935912849 -2.39945463753 0.0395376929223 0.0722483448009 0.642965048118 -0.407498481828 -1.34595547277 -1.36125495188 -1.84738889545 1.2045264146
2.32331868269 0.59789152196 -2.39544202349 0.0403196282261 0.0738122154085 0.642962428753 -0.407212280867 -1.34618220102 -1.36010721421 -1.84429464124 1.20441594011
2.38493084322 0.597848349625 -2.39142999127 0.0411014905061 0.0753759399685 0.642963324093 -0.406924917459 -1.34640287392 -1.35895714999 -1.84119931607 1.20430364532
2.44592644274 0.59780561278 -2.38741838894 0.0418833037843 0.076939566525 0.642967975313 -0.406636486582 -1.34661868217 -1.35780518989 -1.83810291115 1.20419032064
2.50630776836 0.597764886992 -2.38340747503 0.0426649959335 0.0785029508234 0.642975864412 -0.406346810021 -1.34682722131 -1.35665048397 -1.83500554277 1.20407441154
2.56608320613 0.597725388086 -2.37939710091 0.0434465916837 0.0800661423238 0.642987234997 -0.406055991473 -1.34702967866 -1.35549348167 -1.83190719982 1.20395670639
2.62526093493 0.597686330512 -2.37538712513 0.0442281167018 0.08162919236 0.643002333244 -0.405764123688 -1.34722725198 -1.35433461359 -1.82880786853 1.203837997
2.68384346147 0.597649294309 -2.37137778463 0.045009495546 0.0831919500484 0.64302062976 -0.405471033864 -1.34741752329 -1.3531730317 -1.82570767517 1.20371672688
2.74183876989 0.597613492847 -2.36736894134 0.0457907545887 0.0847544681337 0.643042373225 -0.405176823452 -1.34760168702 -1.35200918537 -1.82260660368 1.20359368558
2.79925462059 0.59757813824 -2.36336046442 0.0465719211257 0.0863168012077 0.643067815533 -0.404881582611 -1.34778094869 -1.35084350475 -1.81950463539 1.20346966699
2.85609374817 0.597544814682 -2.35935256898 0.0473529164383 0.0878787918329 0.643096414879 -0.404585144605 -1.34795287584 -1.34967514446 -1.81640190634 1.20334311166
2.91236373901 0.597512733236 -2.35534512758 0.0481337685219 0.0894404960002 0.643128426101 -0.404287608205 -1.34811867112 -1.34850455347 -1.81329839556 1.20321481145
2.96807195576 0.597481103854 -2.35133802022 0.0489145063033 0.0910019715629 0.643164105676 -0.403989060941 -1.34827954649 -1.347332161 -1.81019407968 1.2030855609
3.0232213526 0.597451514534 -2.34733143984 0.049695047802 0.0925630545603 0.643202900775 -0.403689342368 -1.34843305666 -1.34615712519 -1.80708910413 1.20295379933
3.07781912644 0.597423174211 -2.34332526986 0.0504754226393 0.094123804235 0.643245071101 -0.403388548568 -1.34858041103 -1.34497989412 -1.80398344325 1.20282031929
3.13187225877 0.597395290828 -2.33931940119 0.051255661356 0.0956842816684 0.643290878472 -0.403086764073 -1.34872282877 -1.34380089577 -1.80087706903 1.20268591679
3.18538390677 0.597369455856 -2.33531400438 0.0520356787435 0.0972443164433 0.643339758668 -0.402783835259 -1.34885785147 -1.34261929254 -1.79777013603 1.20254902956
3.23783636869 0.597344876261 -2.33130897383 0.0528155060371 0.0988039710306 0.64339197642 -0.402479855252 -1.3489866954 -1.34143553121 -1.79466261401 1.20241045097
3.29028531709 0.597320758148 -2.32730421153 0.0535951753803 0.100363309717 0.643447799011 -0.402174905327 -1.349110587 -1.34025003816 -1.79155447044 1.2022709785
3.34272881704 0.597298696114 -2.32329986536 0.0543745983691 0.101922155695 0.643506650623 -0.401868839184 -1.34922705466 -1.33906198079 -1.78844586874 1.20212904816
3.39516810325 0.597277895323 -2.31929584085 0.0551538078385 0.103480574633 0.643568801479 -0.401561746665 -1.34933732195 -1.33787180424 -1.78533677417 1.20198545459
3.44760431513 0.597257560214 -2.31529205118 0.0559328375263 0.105038634009 0.64363452402 -0.401253705613 -1.34944262215 -1.33667993288 -1.78222714983 1.20184099627
3.50003581193 0.597239288162 -2.31128862137 0.0567115958664 0.106596150689 0.643703230675 -0.400944577544 -1.34954047046 -1.33548553983 -1.77911716771 1.20169410744
3.55246368748 0.5972222827 -2.30728546818 0.0574901172824 0.108153193521 0.643775197149 -0.400634448783 -1.34963209766 -1.33428906821 -1.77600678872 1.20154558387
3.60488892789 0.59720574677 -2.30328251611 0.0582684370929 0.109709833142 0.643850701358 -0.400323393439 -1.34971874413 -1.33309094001 -1.77289597169 1.20139622537
3.65731019901 0.597191280173 -2.29927986709 0.0590464606021 0.111265880161 0.643929143969 -0.400011281309 -1.34979791202 -1.33189033483 -1.76978489688 1.2012444644
3.70972844138 0.597178084983 -2.29527744925 0.0598242238106 0.112821406578 0.644010806238 -0.399698194944 -1.34987083931 -1.33068769338 -1.76667352096 1.20109109789
3.76214449608 0.597165362825 -2.29127519853 0.0606017636096 0.114376486176 0.644095971052 -0.399384204599 -1.34993877285 -1.32948343488 -1.76356179866 1.20093692635
3.81455733558 0.597154715559 -2.28727319355 0.0613789822006 0.115930923358 0.644184028283 -0.399069188593 -1.34999920297 -1.32827674617 -1.76044991818 1.20078038157
3.86696774296 0.597145343985 -2.28327137394 0.062155917155 0.117484793266 0.644275263854 -0.398753225659 -1.35005337379 -1.32706806511 -1.75733783211 1.20062226059
3.92042982875 0.597136448579 -2.27926968718 0.06293260692 0.119038172796 0.644369966353 -0.398436381813 -1.35010253934 -1.32585780784 -1.75422549116 1.20046336539
3.97442399771 0.59712963291 -2.27526818839 0.063708950635 0.120590860226 0.644467513884 -0.39811854455 -1.35014417725 -1.3246451691 -1.75111309123 1.200302126
4.0289562079 0.597124096672 -2.27126682881 0.0644849874243 0.122142933805 0.644568197905 -0.397799788369 -1.35017953864 -1.32343058358 -1.74800058092 1.20013934049
4.08403238841 0.597119039376 -2.26726556757 0.0652607572804 0.123694473517 0.644672312472 -0.397480174868 -1.35020988435 -1.32221446393 -1.74488790707 1.19997581202
4.13965752776 0.597116065932 -2.26326443613 0.0660361563153 0.125245271587 0.644779223868 -0.397159601169 -1.35023267946 -1.3209960135 -1.74177527295 1.19980996879
4.19583761718 0.597114375108 -2.2592633974 0.0668112251922 0.126795409341 0.644889229361 -0.396838137245 -1.35024918227 -1.31977566346 -1.73866262333 1.19964261017
4.2525786023 0.597113165634 -2.25526242229 0.0675860054383 0.128344969833 0.645002628165 -0.396515840124 -1.35026066004 -1.31855382261 -1.73554990129 1.19947454011
4.30988598129 0.597114043391 -2.25126151842 0.0683603901718 0.1298937393 0.645118774998 -0.396192616925 -1.35026456571 -1.31732970358 -1.7324373172 1.19930418522
4.36776576609 0.597116206405 -2.24726066051 0.0691344215839 0.131441802124 0.645237972601 -0.395868532949 -1.35026216434 -1.31610373365 -1.7293248121 1.1991323458
4.41160938589 0.5971181912 -2.24426003857 0.0697147124345 0.132602383825 0.645329887978 -0.395624863364 -1.35025658908 -1.31518317149 -1.7269904471 1.19900295727
4.45545288138 0.59712135152 -2.24125942536 0.0702947677571 0.133762494471 0.645423321517 -0.395380692193 -1.35024674277 -1.31426135767 -1.72465621162 1.1988722985
4.49929632716 0.597125235863 -2.23825881562 0.0708746131108 0.134922185178 0.645518449738 -0.395136051139 -1.35023334296 -1.31333852665 -1.72232206656 1.19874082053
4.54313981851 0.597129844523 -2.23525820263 0.0714542451714 0.136081449299 0.645615266059 -0.394890943683 -1.35021638807 -1.31241468405 -1.71998802546 1.19860852803
4.58698336373 0.597134637779 -2.23225758624 0.0720336954529 0.137240349862 0.645714088723 -0.394645373424 -1.35019685363 -1.31149009762 -1.71765403395 1.19847607916
4.63082724869 0.597140608619 -2.2292569464 0.0726128973936 0.138398753744 0.645814190192 -0.394399374721 -1.35017280906 -1.31056428836 -1.71532023254 1.19834213865
4.67467147756 0.597147303898 -2.22625628299 0.0731918760181 0.139556710992 0.645916067356 -0.394152896509 -1.35014531894 -1.30963749165 -1.7129865709 1.19820751645
4.71851614146 0.597154724345 -2.2232555898 0.0737706284319 0.14071421582 0.646019607062 -0.393905968766 -1.35011426695 -1.30870971139 -1.71065306585 1.19807209732
4.76236114512 0.597162417946 -2.22025487316 0.0743491812778 0.141871321512 0.646125096082 -0.393658587467 -1.35008049265 -1.30778117074 -1.70831967215 1.19793645424
4.80620698987 0.597171289721 -2.21725409928 0.0749274719662 0.143027902889 0.64623183526 -0.393410800001 -1.35004219783 -1.30685144179 -1.70598652244 1.19779933569
4.85005356384 0.597180886554 -2.21425327534 0.0755055264947 0.144184011946 0.646340324778 -0.393162549803 -1.35000045169 -1.30592075419 -1.70365356512 1.19766155381
4.89390096648 0.59719120906 -2.21125239493 0.0760833419354 0.145339642827 0.646450451559 -0.3929138677 -1.34995513797 -1.30498911298 -1.70132081673 1.19752299311
4.93774899475 0.597201805273 -2.20825147135 0.0766609458039 0.146494850564 0.64656250531 -0.392664745744 -1.34990709984 -1.30405673734 -1.69898823049 1.19738422748
4.98159835716 0.597213579818 -2.20525045661 0.0772382737758 0.147649506508 0.64667578045 -0.392415240438 -1.34985453177 -1.30312320909 -1.69665594168 1.19724400273
5.02544883827 0.597226079724 -2.20224936523 0.0778153527976 0.148803664552 0.646790780025 -0.392165289494 -1.3497985072 -1.30218875164 -1.69432389763 1.19710313294
5.06930053751 0.597239305487 -2.1992481906 0.0783921799143 0.149957318785 0.646907391485 -0.391914924532 -1.34973891037 -1.3012533713 -1.69199211456 1.19696150278
5.11315315656 0.597252805303 -2.19624695303 0.0789687835025 0.151110525961 0.647025907144 -0.391664133595 -1.34967658767 -1.30031728294 -1.68966054424 1.19681968674
5.15700760281 0.597267483178 -2.19324559028 0.0795450975285 0.152263154013 0.647145614886 -0.391412982667 -1.34960972621 -1.29938007866 -1.68732932438 1.1966764277
5.20086356137 0.597282886397 -2.19024412423 0.0801211498759 0.153415258708 0.647267021531 -0.391161403292 -1.3495394046 -1.29844197534 -1.68499840134 1.19653254277
5.24472112753 0.59729901534 -2.1872425481 0.080696937568 0.154566834092 0.647390013801 -0.39090942825 -1.34946550625 -1.29750298055 -1.68266779102 1.19638791533
5.28857989939 0.597315418465 -2.1842408892 0.0812724898317 0.15571793862 0.647514887426 -0.390657041221 -1.34938888155 -1.2965633047 -1.6803374438 1.19624312146
5.33244100393 0.597332998946 -2.18123907103 0.0818477389444 0.156868436845 0.647640923885 -0.390404317917 -1.3493077105 -1.29562255055 -1.67800749965 1.19609690105
5.3763040061 0.597351304436 -2.17823712285 0.08242271372 0.158018386396 0.64776863301 -0.390151183734 -1.34922307605 -1.29468092817 -1.67567790406 1.19595007352
5.42016900535 0.597370335195 -2.1752350377 0.0829974111599 0.159167781276 0.647897901528 -0.389897672435 -1.34913486151 -1.29373844646 -1.67334867259 1.19580252175
5.46403550861 0.597389640054 -2.17223284995 0.0835718613343 0.160316681625 0.648029028141 -0.389643763333 -1.34904392076 -1.29279531115 -1.67101975432 1.19565482292
5.50790483761 0.597410121133 -2.16923046876 0.084145994852 0.16146494866 0.648161288013 -0.389389542116 -1.34894842691 -1.29185113606 -1.6686912913 1.19550571391
5.55177645786 0.597431326568 -2.16622793083 0.0847198414477 0.162612641852 0.648295194196 -0.389134927787 -1.3488494674 -1.29090612419 -1.66636322821 1.19535601681
5.59565046879 0.597453256496 -2.16322522901 0.0852933981031 0.163759755162 0.64843063326 -0.388879955164 -1.34874692528 -1.28996028577 -1.6640355803 1.19520561373
5.63952627378 0.597475460228 -2.16022240474 0.0858666957231 0.164906350403 0.648567906922 -0.388624599055 -1.34864165789 -1.28901382168 -1.66170829543 1.19505508307
5.68340540169 0.597498838614 -2.15721935283 0.0864396632682 0.166052285493 0.648706284163 -0.388368955349 -1.34853183169 -1.28806635718 -1.65938151749 1.19490315869
5.72728721033 0.597522940383 -2.15421611744 0.0870123313857 0.167197621728 0.648846281215 -0.388112936488 -1.34841853857 -1.28711808795 -1.65705519053 1.19475066541
5.7711718074 0.597547765548 -2.15121269123 0.0875846970389 0.168342353034 0.648987784299 -0.387856578427 -1.34830166106 -1.28616902559 -1.65472932943 1.19459748432
5.81505848442 0.597572864009 -2.14820912271 0.0881567919598 0.169486542876 0.649131098186 -0.38759985134 -1.34818205994 -1.28521936593 -1.6524038809 1.19444419513
5.85894898985 0.597599135127 -2.14520529236 0.0887285434801 0.170630045917 0.649275485819 -0.387342861521 -1.34805789534 -1.28426874604 -1.65007899052 1.1942895287
5.90284256132 0.597626128339 -2.14220125179 0.0892999831517 0.17177292526 0.649421466385 -0.387085514751 -1.34793026324 -1.28331735403 -1.64775460178 1.1941343124
5.946739319 0.597653843529 -2.13919699346 0.0898711079204 0.172915174797 0.649568926053 -0.386827848053 -1.34779904602 -1.28236520289 -1.64543072919 1.19397842664
5.9906384425 0.597681831294 -2.13619257301 0.0904419503376 0.174056859632 0.649718172525 -0.386569826891 -1.34766510767 -1.28141248325 -1.64310731839 1.19382245232
6.03454189576 0.597710989291 -2.13318785653 0.0910124361256 0.175197831208 0.649868462935 -0.386311568132 -1.34752660235 -1.2804588443 -1.64078451647 1.1936651174
6.07844880867 0.597740867774 -2.13018290312 0.0915825977332 0.176338154423 0.650020319077 -0.386052970837 -1.34738462975 -1.27950446636 -1.63846226646 1.19350725155
6.12235929311 0.5977714665 -2.12717770505 0.0921524320901 0.177477823137 0.650173627204 -0.385794073083 -1.34723907218 -1.27854936385 -1.63614058247 1.19334873458
6.16627243756 0.59780233687 -2.12417232507 0.0927219725589 0.178616904074 0.650328697873 -0.385534835536 -1.3470907967 -1.27759372203 -1.63381940919 1.19319014856
6.21019040895 0.597834374617 -2.12116661488 0.0932911432722 0.179755245501 0.650484782454 -0.385275385847 -1.34693795172 -1.27663720253 -1.63149889498 1.19303021845
6.25411222948 0.597867130928 -2.11816064111 0.0938599775675 0.180892914091 0.650642405439 -0.385015616178 -1.34678164063 -1.27567997767 -1.62917898255 1.19286977641
6.29803801929 0.597900605428 -2.11515439583 0.0944284723597 0.182029903676 0.6508014532 -0.384755565659 -1.34662174575 -1.27472206328 -1.62685968559 1.19270870168
6.34196675499 0.597934350432 -2.11214794888 0.0949966618148 0.183166282586 0.650962238991 -0.384495190116 -1.34645913693 -1.27376363915 -1.62454094789 1.19254757735
6.38590081484 0.597969259533 -2.10914113763 0.095564468495 0.184301895946 0.651124008499 -0.384234628168 -1.34629195705 -1.27280437961 -1.62222291896 1.19238512532
6.42983911328 0.598004884963 -2.10613403619 0.0961319266188 0.185436812194 0.651287288899 -0.383973764932 -1.34612131315 -1.2718444488 -1.61990554124 1.19222218036
6.47378176634 0.598041226213 -2.10312663646 0.096699033087 0.18657102513 0.65145196694 -0.383712640523 -1.34594708782 -1.27088386395 -1.617588828 1.19205862139
6.51772765947 0.598077836617 -2.10011901535 0.0972658228618 0.18770460468 0.651618358152 -0.383451205979 -1.34577015315 -1.26992279927 -1.61527272221 1.19189503205
6.56167936979 0.598115607417 -2.09711099595 0.0978322169536 0.188837392863 0.651785703144 -0.383189610874 -1.34558864732 -1.26896094202 -1.61295737433 1.19173013177
6.60563570819 0.598154091998 -2.09410265981 0.0983982504541 0.189969459864 0.651954531161 -0.382927733354 -1.34540368028 -1.26799844801 -1.61064272668 1.19156475731
6.64959679895 0.598193289719 -2.09109399869 0.098963920252 0.19110079946 0.652124729122 -0.382665614609 -1.34521513462 -1.26703533592 -1.60832879204 1.19139878695
6.69356140738 0.598232755035 -2.08808509657 0.0995292620975 0.192231483151 0.652296615481 -0.382403200576 -1.34502388533 -1.26607177419 -1.60601551267 1.19123280577
6.73753233021 0.598273376629 -2.08507576225 0.100094195468 0.193361349892 0.652469425349 -0.382140652113 -1.34482806558 -1.26510746329 -1.60370303981 1.19106553001
6.78150827058 0.598314709147 -2.08206608476 0.10065875632 0.194490471597 0.652643690374 -0.381877840153 -1.34462878852 -1.26414255051 -1.60139131571 1.19089779895
6.8254893445 0.598356751812 -2.07905605569 0.101222941533 0.195618842022 0.65281929778 -0.38161480692 -1.3444259369 -1.26317705596 -1.59908035271 1.19072949041
6.86947422612 0.598399060312 -2.07604576608 0.101786787636 0.196746534228 0.652996568492 -0.381351493334 -1.34422038798 -1.26221114225 -1.59677009239 1.19056119032
